# dimensionless total lensed [l(l+1)/2pi] C_l's
# for l=2 to 2500, i.e. number of multipoles equal to 2499
#
# -> if you prefer output in CAMB/HealPix/LensPix units/order, set 'format' to 'camb' in input file
# -> if you don't want to see such a header, set 'headers' to 'no' in input file
# -> for CMB lensing (phi), these are C_l^phi-phi for the lensing potential.
#    Remember the conversion factors:
#    C_l^dd (deflection) = l(l+1) C_l^phi-phi
#    C_l^gg (shear/convergence) = 1/4 (l(l+1))^2 C_l^phi-phi
#
# 1:l     2:TT                     3:EE                     4:TE                     5:BB                     6:phiphi                 7:TPhi                   8:Ephi               
    2       1.495442758914e-10       7.309265059112e-15       4.815171148060e-13       2.388861703440e-19       8.628903635984e-09       4.854772096480e-10      -2.515854151607e-12 
    3       1.409375668034e-10       1.238839452137e-14       6.068719461068e-13       4.780045464123e-19       5.411291750024e-09       3.469573591978e-10      -2.211507031139e-12 
    4       1.324638934377e-10       1.446592354296e-14       6.277975858821e-13       7.971820798548e-19       3.776588576950e-09       2.639785115285e-10      -1.764116067088e-12 
    5       1.257528918577e-10       1.337973191014e-14       5.879550144247e-13       1.196705935925e-18       2.821984253237e-09       2.093815846735e-10      -1.309529286458e-12 
    6       1.208087569670e-10       1.032478441036e-14       5.173987897633e-13       1.676916504542e-18       2.205212302809e-09       1.709428966001e-10      -8.948468925199e-13 
    7       1.173342235382e-10       6.843838595793e-15       4.365330660538e-13       2.238196117701e-18       1.778233657838e-09       1.425663902484e-10      -5.443860557316e-13 
    8       1.150094176898e-10       4.045255172180e-15       3.576614997070e-13       2.880956547293e-18       1.468351563865e-09       1.208855372589e-10      -2.689334596350e-13 
    9       1.135899953947e-10       2.339962952899e-15       2.880577371241e-13       3.605625777660e-18       1.235838591985e-09       1.038809750353e-10      -7.009986720063e-14 
   10       1.128613003018e-10       1.576066393089e-15       2.317780349256e-13       4.412634574420e-18       1.056623431419e-09       9.029296920401e-11       5.745597598292e-14 
   11       1.126830767504e-10       1.351208676665e-15       1.905546771046e-13       5.302403377059e-18       8.886898960936e-10       7.950622522229e-11       1.233291889575e-13 
   12       1.129466835172e-10       1.294588314252e-15       1.640599037536e-13       6.275330027408e-18       7.765278581714e-10       7.028427680536e-11       1.421600853619e-13 
   13       1.135320837974e-10       1.208007402104e-15       1.505250308597e-13       7.331778809810e-18       6.844563407757e-10       6.274647832389e-11       1.277329342773e-13 
   14       1.143407918547e-10       1.063264030034e-15       1.473981484698e-13       8.472071223280e-18       6.078507097192e-10       5.620931750165e-11       9.279532811677e-14 
   15       1.153792177562e-10       9.202377766635e-16       1.516646924301e-13       9.696478833273e-18       5.433694020435e-10       5.074770322448e-11       4.959311388061e-14 
   16       1.166084639442e-10       8.404031766647e-16       1.602810275770e-13       1.100521846397e-17       4.885455371621e-10       4.611881772257e-11       7.232456867514e-15 
   17       1.179455009942e-10       8.411741270398e-16       1.707678007220e-13       1.239844989468e-17       4.415155636903e-10       4.212235624712e-11      -2.792920750617e-14 
   18       1.193943886749e-10       8.950457268859e-16       1.812583736943e-13       1.387627489402e-17       4.006946066403e-10       3.857273098300e-11      -5.233421663207e-14 
   19       1.209630568319e-10       9.693348506443e-16       1.907730517240e-13       1.543874612748e-17       3.654375359732e-10       3.544037088174e-11      -6.510245698995e-14 
   20       1.225956280314e-10       1.030562384554e-15       1.985685573949e-13       1.708585890256e-17       3.343837657013e-10       3.267209312774e-11      -6.706958879871e-14 
   21       1.243040209050e-10       1.081655451275e-15       2.047244303434e-13       1.881757638373e-17       3.070458428694e-10       3.022366421604e-11      -6.038518157767e-14 
   22       1.260879307754e-10       1.140726898819e-15       2.096934198904e-13       2.063381972938e-17       2.827706870664e-10       2.801369686908e-11      -4.840846302534e-14 
   23       1.279365673835e-10       1.227172463209e-15       2.139233703677e-13       2.253449806494e-17       2.612248181128e-10       2.601112647383e-11      -3.407762108705e-14 
   24       1.298178507022e-10       1.359591122074e-15       2.179345849446e-13       2.451949857338e-17       2.419102464900e-10       2.418236719784e-11      -2.047693834748e-14 
   25       1.317486478289e-10       1.538392517487e-15       2.222217827626e-13       2.658872144181e-17       2.246000795534e-10       2.253678496938e-11      -9.447601106663e-15 
   26       1.337412810003e-10       1.756560539482e-15       2.272302522088e-13       2.874206773567e-17       2.089813658081e-10       2.107676562227e-11      -2.331878616593e-15 
   27       1.357769023927e-10       2.007678391804e-15       2.329801811198e-13       3.097947002312e-17       1.948668588939e-10       1.976941430948e-11       6.620884889086e-16 
   28       1.378198866683e-10       2.285336754406e-15       2.392873941198e-13       3.330088463401e-17       1.820132753232e-10       1.856393189968e-11      -9.525744583467e-17 
   29       1.398799660601e-10       2.589051794700e-15       2.458479745287e-13       3.570632693965e-17       1.703550551520e-10       1.745583563718e-11      -3.801164222139e-15 
   30       1.419713755613e-10       2.920067205827e-15       2.522262647081e-13       3.819585163137e-17       1.597671079134e-10       1.644630379257e-11      -9.226626144753e-15 
   31       1.440979648197e-10       3.279007077883e-15       2.579084720557e-13       4.076955263008e-17       1.500335729601e-10       1.552718889914e-11      -1.492866850615e-14 
   32       1.462626231371e-10       3.663758722451e-15       2.625223760903e-13       4.342758665458e-17       1.411042618028e-10       1.468922990353e-11      -2.002927188116e-14 
   33       1.484586552476e-10       4.070695966842e-15       2.656892014994e-13       4.617016689705e-17       1.329161044053e-10       1.391499299555e-11      -2.370100860829e-14 
   34       1.506731917580e-10       4.496668884258e-15       2.670412846309e-13       4.899755677919e-17       1.253546015533e-10       1.318310545007e-11      -2.518539315065e-14 
   35       1.529128609749e-10       4.944269828863e-15       2.664970857336e-13       5.191005153362e-17       1.183811118886e-10       1.249406842613e-11      -2.459200427018e-14 
   36       1.551854434198e-10       5.418475923164e-15       2.640842989496e-13       5.490799808352e-17       1.119397507680e-10       1.185260598309e-11      -2.238999056443e-14 
   37       1.574933340493e-10       5.924454830098e-15       2.598749288286e-13       5.799178002772e-17       1.059467541060e-10       1.126052907668e-11      -1.915231283096e-14 
   38       1.598369997967e-10       6.464531452371e-15       2.540004667324e-13       6.116173404063e-17       1.003866737841e-10       1.071668589535e-11      -1.535845714540e-14 
   39       1.622114328425e-10       7.040265231581e-15       2.466473416637e-13       6.441821116087e-17       9.524189857560e-11       1.021644639666e-11      -1.154171219434e-14 
   40       1.646043359534e-10       7.653263660372e-15       2.380572489820e-13       6.776160225079e-17       9.046339157230e-11       9.751302030122e-12      -8.351240206621e-15 
   41       1.670017614091e-10       8.304886780965e-15       2.284586242301e-13       7.119229954755e-17       8.598778206205e-11       9.311579020990e-12      -6.389556078274e-15 
   42       1.694089043532e-10       8.995242787236e-15       2.178260416942e-13       7.471056051227e-17       8.180192317807e-11       8.896416829959e-12      -5.644104211847e-15 
   43       1.718349099103e-10       9.723866997532e-15       2.060482290123e-13       7.831660368580e-17       7.789473563853e-11       8.506494467533e-12      -5.882705360590e-15 
   44       1.742868701575e-10       1.048997094276e-14       1.929917329341e-13       8.201064529661e-17       7.423783539429e-11       8.141162512784e-12      -6.802858646350e-15 
   45       1.767694837737e-10       1.129272581806e-14       1.785110556773e-13       8.579286212050e-17       7.079567867906e-11       7.798886651070e-12      -8.072933482903e-15 
   46       1.792845249311e-10       1.213225976576e-14       1.624863245021e-13       8.966326784823e-17       6.756286063128e-11       7.479005502668e-12      -9.481082048575e-15 
   47       1.818307743708e-10       1.300892562544e-14       1.447942513955e-13       9.362179901367e-17       6.453562386329e-11       7.180304072215e-12      -1.082315697434e-14 
   48       1.844038293564e-10       1.392302192874e-14       1.252965748816e-13       9.766834600405e-17       6.170060810072e-11       6.900421702798e-12      -1.185902583683e-14 
   49       1.869958396115e-10       1.487479087714e-14       1.038391853502e-13       1.018027505094e-16       5.903413603141e-11       6.635770005120e-12      -1.231068369870e-14 
   50       1.895987213075e-10       1.586442720211e-14       8.029468167242e-14       1.060247995037e-16       5.650934619081e-11       6.382573209171e-12      -1.195045473009e-14 
   51       1.922154401360e-10       1.689211227239e-14       5.470568839513e-14       1.103342111803e-16       5.412153097211e-11       6.140512536133e-12      -1.089820049786e-14 
   52       1.948513344484e-10       1.795798574918e-14       2.717892845733e-14       1.147306407897e-16       5.186844187862e-11       5.909929185560e-12      -9.401522917224e-15 
   53       1.975108068739e-10       1.906213403859e-14      -2.153666628574e-15       1.192136811250e-16       4.974270690787e-11       5.690759814711e-12      -7.755022349455e-15 
   54       2.001972239282e-10       2.020458878149e-14      -3.313378762197e-14       1.237828598079e-16       4.773148567279e-11       5.482507287597e-12      -6.302649628496e-15 
   55       2.029129585012e-10       2.138534251566e-14      -6.561524636559e-14       1.284376914985e-16       4.582038821985e-11       5.284470597837e-12      -5.357162082376e-15 
   56       2.056597596652e-10       2.260440367800e-14      -9.959335030173e-14       1.331778559296e-16       4.400716158919e-11       5.096568535168e-12      -4.929672342856e-15 
   57       2.084382988932e-10       2.386175262092e-14      -1.351056194968e-13       1.380030593463e-16       4.229079920756e-11       4.918669400031e-12      -4.937033413303e-15 
   58       2.112479424688e-10       2.515732481445e-14      -1.721953026934e-13       1.429129828963e-16       4.066740021197e-11       4.750331020606e-12      -5.277989671279e-15 
   59       2.140866566633e-10       2.649101000514e-14      -2.109117536602e-13       1.479072820557e-16       3.912999068888e-11       4.590781599533e-12      -5.832299180631e-15 
   60       2.169509129106e-10       2.786265137497e-14      -2.513108075429e-13       1.529855860553e-16       3.766834491360e-11       4.438900560640e-12      -6.459856003579e-15 
   61       2.198371764582e-10       2.927198896226e-14      -2.934433183339e-13       1.581475760973e-16       3.627182542436e-11       4.293522127515e-12      -7.029637222506e-15 
   62       2.227469773018e-10       3.071847698649e-14      -3.373169133023e-13       1.633932418203e-16       3.493905259175e-11       4.154469016739e-12      -7.516122255814e-15 
   63       2.256828143892e-10       3.220142384094e-14      -3.829262827071e-13       1.687226816440e-16       3.367009815155e-11       4.021717836306e-12      -7.923056913574e-15 
   64       2.286466288875e-10       3.372004165461e-14      -4.302642618510e-13       1.741360309464e-16       3.246357656161e-11       3.895088091277e-12      -8.255605718296e-15 
   65       2.316397596009e-10       3.527344368260e-14      -4.793218317928e-13       1.796334639893e-16       3.131656202650e-11       3.774233270541e-12      -8.520420532505e-15 
   66       2.346628983895e-10       3.686064169650e-14      -5.300881200584e-13       1.852151958452e-16       3.022450552216e-11       3.658631933584e-12      -8.725709186316e-15 
   67       2.377160455880e-10       3.848054337478e-14      -5.825504013526e-13       1.908814843226e-16       2.918115182054e-11       3.547578797246e-12      -8.881304105008e-15 
   68       2.407989769624e-10       4.013207043695e-14      -6.366940421361e-13       1.966326200524e-16       2.818021030087e-11       3.440382644541e-12      -8.997640546062e-15 
   69       2.439128541080e-10       4.181454667555e-14      -6.925023197236e-13       2.024688901092e-16       2.722094598992e-11       3.337026541591e-12      -9.082297492624e-15 
   70       2.470588617715e-10       4.352738422293e-14      -7.499565676401e-13       2.083906104447e-16       2.630357755843e-11       3.237626000559e-12      -9.142875919119e-15 
   71       2.502376942501e-10       4.526997023404e-14      -8.090362278019e-13       2.143981386698e-16       2.542758633415e-11       3.142230435446e-12      -9.188067175880e-15 
   72       2.534495238927e-10       4.704166736497e-14      -8.697188497921e-13       2.204918756773e-16       2.459167818044e-11       3.050819538417e-12      -9.227693729497e-15 
   73       2.566939696013e-10       4.884181425136e-14      -9.319800901371e-13       2.266722672658e-16       2.379374537472e-11       2.963299656136e-12      -9.272749903170e-15 
   74       2.599700653320e-10       5.066972598691e-14      -9.957937115822e-13       2.329398057624e-16       2.303082848706e-11       2.879500166090e-12      -9.335442617053e-15 
   75       2.632762285967e-10       5.252469460182e-14      -1.061131582368e-12       2.392950316461e-16       2.229907825863e-11       2.799169852923e-12      -9.429232128606e-15 
   76       2.666109045258e-10       5.440582975376e-14      -1.127960777036e-12       2.457384362789e-16       2.159471119997e-11       2.722043514104e-12      -9.564933229753e-15 
   77       2.699747032783e-10       5.631154620439e-14      -1.196234270088e-12       2.522701460325e-16       2.091716183261e-11       2.648063809423e-12      -9.738107980141e-15 
   78       2.733685969829e-10       5.823998331678e-14      -1.265898536074e-12       2.588901832421e-16       2.026643868551e-11       2.577193471301e-12      -9.939437313830e-15 
   79       2.767932613939e-10       6.018915379872e-14      -1.336896238317e-12       2.655985595902e-16       1.964216411313e-11       2.509346516156e-12      -1.015841723411e-14 
   80       2.802490582453e-10       6.215694090467e-14      -1.409166168760e-12       2.723952757025e-16       1.904355655096e-11       2.444386060849e-12      -1.038331877031e-14 
   81       2.837360176047e-10       6.414109563762e-14      -1.482643187803e-12       2.792803207429e-16       1.846941277107e-11       2.382122139116e-12      -1.060114793465e-14 
   82       2.872538202282e-10       6.613923395099e-14      -1.557258164142e-12       2.862536720087e-16       1.791809013765e-11       2.322309518012e-12      -1.079760567905e-14 
   83       2.908017799142e-10       6.814883395052e-14      -1.632937914614e-12       2.933152945266e-16       1.738748886258e-11       2.264645514346e-12      -1.095704785195e-14 
   84       2.943792104400e-10       7.016748506146e-14      -1.709613552882e-12       3.004651559865e-16       1.687556237084e-11       2.208841365992e-12      -1.106573171210e-14 
   85       2.979866349180e-10       7.219368911971e-14      -1.787247257502e-12       3.077032752767e-16       1.638198447808e-11       2.154854723390e-12      -1.112226156710e-14 
   86       3.016247455046e-10       7.422618757191e-14      -1.865809851766e-12       3.150296812903e-16       1.590672734724e-11       2.102691875960e-12      -1.112880943466e-14 
   87       3.052940256258e-10       7.626372273332e-14      -1.945272869378e-12       3.224443981571e-16       1.544954921431e-11       2.052336690692e-12      -1.108799741961e-14 
   88       3.089947387954e-10       7.830503922451e-14      -2.025608635621e-12       3.299474450969e-16       1.500998551969e-11       2.003749664798e-12      -1.100291290698e-14 
   89       3.127269174324e-10       8.034888540788e-14      -2.106790348519e-12       3.375388362722e-16       1.458734003953e-11       1.956866978366e-12      -1.087712375508e-14 
   90       3.164903516792e-10       8.239401482433e-14      -2.188792160005e-12       3.452185806416e-16       1.418067601709e-11       1.911599547020e-12      -1.071469348859e-14 
   91       3.202845782190e-10       8.443918762982e-14      -2.271589257086e-12       3.529866818132e-16       1.378880729405e-11       1.867832074572e-12      -1.052019649158e-14 
   92       3.241088690937e-10       8.648317203198e-14      -2.355157943008e-12       3.608431378975e-16       1.341028944188e-11       1.825422105676e-12      -1.029873320068e-14 
   93       3.279624897801e-10       8.852463578022e-14      -2.439467640844e-12       3.687880584717e-16       1.304376249378e-11       1.784235792935e-12      -1.005545720156e-14 
   94       3.318455421048e-10       9.056179884721e-14      -2.524455352227e-12       3.768220359146e-16       1.268905736820e-11       1.744263409369e-12      -9.794042158900e-15 
   95       3.357582280188e-10       9.259273092375e-14      -2.610047489400e-12       3.849458299089e-16       1.234624022857e-11       1.705519538322e-12      -9.518011330221e-15 
   96       3.397005842493e-10       9.461545663920e-14      -2.696167581204e-12       3.931602567477e-16       1.201527172162e-11       1.668007469558e-12      -9.231213497043e-15 
   97       3.436724748138e-10       9.662795548894e-14      -2.782736243364e-12       4.014661907947e-16       1.169600293518e-11       1.631718755889e-12      -8.937831457945e-15 
   98       3.476735835339e-10       9.862816176173e-14      -2.869671148773e-12       4.098645659456e-16       1.138817135581e-11       1.596632769802e-12      -8.642390521622e-15 
   99       3.517034065491e-10       1.006139644670e-13      -2.956886997781e-12       4.183563770881e-16       1.109139682654e-11       1.562716260091e-12      -8.349766999937e-15 
  100       3.557612448307e-10       1.025832072626e-13      -3.044295488481e-12       4.269426815633e-16       1.080517750461e-11       1.529922908480e-12      -8.065196700980e-15 
  101       3.598461966956e-10       1.045336883814e-13      -3.131805286992e-12       4.356246006259e-16       1.052888581911e-11       1.498192886257e-12      -7.794283422122e-15 
  102       3.639571503204e-10       1.064631605598e-13      -3.219321997748e-12       4.444033209056e-16       1.026176442874e-11       1.467452410898e-12      -7.543007443072e-15 
  103       3.680927762550e-10       1.083693309640e-13      -3.306748133782e-12       4.532800958668e-16       1.000292217951e-11       1.437613302697e-12      -7.317734018930e-15 
  104       3.722518109893e-10       1.102499697394e-13      -3.393989608735e-12       4.622561156730e-16       9.751536131137e-12       1.408593067470e-12      -7.123746513520e-15 
  105       3.764339674037e-10       1.121032525119e-13      -3.480976275642e-12       4.713320936083e-16       9.507497423822e-12       1.380379189256e-12      -6.960601834847e-15 
  106       3.806391339233e-10       1.139274642332e-13      -3.567644120156e-12       4.805086262503e-16       9.270845528841e-12       1.352972736483e-12      -6.826160499359e-15 
  107       3.848670902117e-10       1.157208957991e-13      -3.653929028032e-12       4.897863200931e-16       9.041568214532e-12       1.326368396268e-12      -6.717998338023e-15 
